time,frequency,confidence
0.000,439.622,0.831990
0.010,439.153,0.872075
0.020,437.975,0.907459
0.030,437.280,0.921394
0.040,435.510,0.919385
0.050,433.290,0.914943
0.060,431.555,0.936731
0.070,430.028,0.923605
0.080,428.288,0.918886
0.090,426.735,0.933150
0.100,424.965,0.898685
0.110,422.577,0.905918
0.120,420.519,0.890322
0.130,417.999,0.909026
0.140,416.260,0.923234
0.150,415.006,0.905972
0.160,413.524,0.907373
0.170,411.832,0.925805
0.180,409.922,0.888175
0.190,407.632,0.920675
0.200,405.520,0.912644
0.210,403.168,0.925918
0.220,401.315,0.921344
0.230,399.540,0.921760
0.240,398.131,0.947181
0.250,396.424,0.933657
0.260,394.873,0.937014
0.270,393.235,0.955526
0.280,391.670,0.930893
0.290,390.090,0.944831
0.300,388.303,0.942814
0.310,385.901,0.911958
0.320,383.674,0.906986
0.330,381.697,0.912896
0.340,380.156,0.927997
0.350,378.484,0.901300
0.360,376.640,0.934069
0.370,374.679,0.915680
0.380,372.536,0.905386
0.390,370.908,0.918265
0.400,369.460,0.883418
0.410,367.565,0.886971
0.420,365.243,0.870784
0.430,363.211,0.916598
0.440,361.301,0.910318
0.450,359.394,0.909824
0.460,357.371,0.918194
0.470,355.607,0.922664
0.480,353.908,0.937107
0.490,352.469,0.908443
0.500,350.989,0.928251
0.510,349.420,0.923404
0.520,348.271,0.879340
0.530,346.625,0.915765
0.540,344.649,0.892683
0.550,342.416,0.918555
0.560,340.224,0.890925
0.570,337.959,0.910383
0.580,336.184,0.882627
0.590,334.784,0.927093
0.600,332.986,0.908894
0.610,331.321,0.936994
0.620,329.720,0.936608
0.630,328.009,0.936740
0.640,326.269,0.941565
0.650,324.497,0.938475
0.660,322.978,0.946010
0.670,321.140,0.893571
0.680,318.948,0.929996
0.690,316.910,0.909516
0.700,314.622,0.916298
0.710,313.138,0.927478
0.720,311.769,0.941386
0.730,310.247,0.923642
0.740,308.521,0.957424
0.750,306.659,0.936261
0.760,304.625,0.946877
0.770,302.455,0.935609
0.780,300.465,0.907540
0.790,298.832,0.929784
0.800,297.162,0.912250
0.810,295.540,0.936135
0.820,293.651,0.924385
0.830,292.024,0.928619
0.840,290.246,0.919830
0.850,288.317,0.932654
0.860,285.864,0.933848
0.870,284.413,0.962376
0.880,282.423,0.915355
0.890,280.079,0.905266
0.900,278.312,0.929606
0.910,276.751,0.918298
0.920,275.262,0.941731
0.930,273.721,0.929935
0.940,271.964,0.950039
0.950,269.934,0.950199
0.960,267.784,0.955787
0.970,265.877,0.963377
0.980,263.962,0.923636
0.990,262.283,0.967097
1.000,260.639,0.944245
1.010,259.280,0.960810
1.020,259.073,0.963028
1.030,259.777,0.963656
1.040,261.230,0.952239
1.050,262.763,0.966616
1.060,264.488,0.947952
1.070,266.306,0.959165
1.080,268.132,0.965363
1.090,270.027,0.951060
1.100,272.438,0.960809
1.110,274.266,0.953644
1.120,275.604,0.948849
1.130,276.791,0.927130
1.140,278.355,0.940827
1.150,280.076,0.917860
1.160,281.993,0.942493
1.170,284.082,0.963866
1.180,285.868,0.935871
1.190,287.630,0.966649
1.200,289.369,0.917968
1.210,291.455,0.953480
1.220,293.220,0.943657
1.230,294.724,0.968707
1.240,296.365,0.933627
1.250,298.038,0.958366
1.260,299.779,0.944439
1.270,301.472,0.969922
1.280,303.343,0.955139
1.290,305.248,0.979962
1.300,307.251,0.967486
1.310,309.223,0.971997
1.320,310.885,0.964882
1.330,312.144,0.975365
1.340,313.561,0.957828
1.350,315.720,0.958990
1.360,318.471,0.938543
1.370,320.421,0.938278
1.380,322.012,0.944792
1.390,323.441,0.963471
1.400,324.959,0.945225
1.410,326.611,0.977417
1.420,328.320,0.963174
1.430,329.578,0.982372
1.440,330.943,0.987133
1.450,332.462,0.967089
1.460,334.106,0.969040
1.470,336.072,0.952232
1.480,337.957,0.957268
1.490,340.017,0.943715
1.500,342.354,0.961585
1.510,344.532,0.953303
1.520,345.942,0.973146
1.530,347.100,0.968696
1.540,348.450,0.963496
1.550,348.968,0.966202
1.560,349.201,0.939344
1.570,350.126,0.746475
1.580,353.760,0.608157
1.590,358.698,0.828258
1.600,360.269,0.858552
1.610,361.383,0.907142
1.620,362.385,0.916678
1.630,363.726,0.890618
1.640,365.957,0.862065
1.650,368.408,0.835624
1.660,370.462,0.864016
1.670,372.161,0.875861
1.680,373.971,0.883788
1.690,375.756,0.927737
1.700,377.602,0.917962
1.710,379.330,0.953021
1.720,380.965,0.955263
1.730,382.686,0.921879
1.740,384.249,0.947407
1.750,386.140,0.929746
1.760,387.990,0.950199
1.770,390.044,0.947607
1.780,391.594,0.943589
1.790,393.099,0.968931
1.800,394.971,0.952838
1.810,396.599,0.958239
1.820,398.057,0.970054
1.830,399.658,0.943831
1.840,401.308,0.945756
1.850,403.392,0.946277
1.860,405.323,0.933370
1.870,407.089,0.955247
1.880,408.923,0.932772
1.890,411.016,0.948218
1.900,413.036,0.946351
1.910,414.569,0.926688
1.920,416.008,0.957187
1.930,417.470,0.959693
1.940,419.337,0.928914
1.950,421.233,0.941583
1.960,423.322,0.931610
1.970,425.275,0.937167
1.980,426.939,0.956026
1.990,428.525,0.932681
2.000,430.378,0.951346
2.010,432.122,0.954033
2.020,433.838,0.923973
2.030,435.416,0.949267
2.040,436.300,0.949887
2.050,437.023,0.948454
2.060,437.286,0.945873
2.070,437.462,0.941963
2.080,437.635,0.938057
2.090,437.924,0.935413
2.100,437.969,0.931964
2.110,438.251,0.926657
2.120,438.366,0.922924
2.130,438.556,0.916595
2.140,438.787,0.926016
2.150,438.869,0.927166
2.160,439.141,0.937061
2.170,439.242,0.939007
2.180,439.467,0.943537
2.190,439.547,0.946234
2.200,439.719,0.948813
2.210,439.951,0.952263
2.220,440.048,0.954344
2.230,440.253,0.954943
2.240,440.350,0.957795
2.250,440.477,0.956323
2.260,440.683,0.957485
2.270,440.775,0.957798
2.280,441.011,0.955340
2.290,441.035,0.957046
2.300,441.146,0.956733
2.310,441.360,0.956080
2.320,441.420,0.953954
2.330,441.758,0.951320
2.340,441.978,0.952013
2.350,441.819,0.950571
2.360,441.943,0.947337
2.370,442.224,0.944309
2.380,442.737,0.937319
2.390,442.781,0.939417
2.400,442.602,0.935213
2.410,442.584,0.933331
2.420,442.513,0.932866
2.430,442.938,0.930562
2.440,443.338,0.925108
2.450,443.702,0.913521
2.460,443.929,0.905795
2.470,443.998,0.899243
2.480,444.150,0.896530
2.490,444.247,0.891381
2.500,444.514,0.884951
2.510,444.663,0.884328
2.520,444.958,0.898292
2.530,445.060,0.895886
2.540,445.215,0.900759
2.550,445.193,0.897511
2.560,445.091,0.897744
2.570,445.266,0.907725
2.580,445.385,0.907317
2.590,445.693,0.914880
2.600,445.865,0.911643
2.610,446.115,0.924347
2.620,446.125,0.925473
2.630,446.306,0.926398
2.640,446.366,0.922046
2.650,446.637,0.925272
2.660,446.596,0.927053
2.670,446.802,0.931618
2.680,446.923,0.926044
2.690,447.024,0.926063
2.700,447.163,0.927870
2.710,447.408,0.926001
2.720,447.553,0.924840
2.730,447.665,0.921170
2.740,448.046,0.921238
2.750,448.095,0.915023
2.760,448.377,0.915108
2.770,448.596,0.906619
2.780,448.725,0.908612
2.790,448.995,0.899231
2.800,449.080,0.900518
2.810,449.289,0.889987
2.820,449.514,0.894670
2.830,449.672,0.896991
2.840,449.837,0.905157
2.850,449.945,0.904597
2.860,450.181,0.913447
2.870,450.262,0.912372
2.880,450.445,0.916384
2.890,450.618,0.918528
2.900,450.749,0.919474
2.910,450.986,0.921345
2.920,451.138,0.924116
2.930,451.281,0.922051
2.940,451.498,0.924367
2.950,451.594,0.923023
2.960,451.928,0.923684
2.970,452.074,0.922190
2.980,452.240,0.921657
2.990,452.508,0.919258
3.000,452.668,0.918786
3.010,452.917,0.913013
3.020,452.977,0.915783
3.030,453.266,0.911200
3.040,453.286,0.908838
3.050,453.188,0.909974
3.060,452.199,0.916190
3.070,450.880,0.908987
3.080,449.305,0.882617
3.090,447.871,0.913795
3.100,446.125,0.903022
3.110,444.540,0.874252
3.120,443.233,0.914857
3.130,442.060,0.945935
3.140,440.958,0.952466
3.150,439.413,0.925530
3.160,437.762,0.911509
3.170,436.357,0.921954
3.180,434.610,0.908096
3.190,432.917,0.921657
3.200,431.360,0.937225
3.210,429.994,0.924690
3.220,428.586,0.910893
3.230,427.192,0.937544
3.240,425.856,0.919281
3.250,424.092,0.885396
3.260,422.214,0.901884
3.270,420.200,0.883601
3.280,418.232,0.905581
3.290,416.717,0.922366
3.300,415.548,0.909754
3.310,414.366,0.880853
3.320,412.936,0.916076
3.330,411.558,0.926363
3.340,409.728,0.886131
3.350,407.906,0.919794
3.360,406.429,0.918419
3.370,404.769,0.890653
3.380,403.001,0.936613
3.390,401.307,0.925293
3.400,399.652,0.918311
3.410,398.359,0.943636
3.420,396.869,0.939338
3.430,395.376,0.919424
3.440,393.801,0.955532
3.450,392.607,0.954305
3.460,391.404,0.925874
3.470,389.992,0.946434
3.480,388.323,0.944203
3.490,386.610,0.894510
3.500,384.741,0.923949
3.510,382.786,0.892295
3.520,381.157,0.925236
3.530,379.916,0.927573
3.540,378.653,0.908689
3.550,377.041,0.932824
3.560,375.446,0.933206
3.570,373.661,0.880559
3.580,372.012,0.915077
3.590,370.603,0.914226
3.600,369.241,0.876435
3.610,367.505,0.892804
3.620,365.716,0.882756
3.630,363.762,0.907185
3.640,362.232,0.926842
3.650,360.752,0.905191
3.660,358.965,0.923937
3.670,357.282,0.921327
3.680,355.703,0.920508
3.690,354.387,0.937494
3.700,353.112,0.928557
3.710,351.741,0.919694
3.720,350.561,0.935284
3.730,349.223,0.919372
3.740,348.310,0.878441
3.750,346.890,0.907737
3.760,345.373,0.912415
3.770,343.601,0.907666
3.780,341.604,0.910449
3.790,339.467,0.908368
3.800,338.221,0.910815
3.810,336.813,0.889603
3.820,334.984,0.924641
3.830,333.231,0.914462
3.840,331.725,0.923179
3.850,330.538,0.943000
3.860,329.326,0.926190
3.870,328.009,0.935497
3.880,326.456,0.943911
3.890,324.873,0.924283
3.900,323.482,0.954315
3.910,322.189,0.935740
3.920,320.595,0.913652
3.930,318.680,0.929497
3.940,316.913,0.913369
3.950,314.868,0.928013
3.960,313.492,0.921992
3.970,312.298,0.946571
3.980,311.242,0.943603
3.990,310.067,0.937606
4.000,308.469,0.958856
4.010,306.530,0.945946
4.020,304.737,0.960801
4.030,303.273,0.935789
4.040,301.680,0.950524
4.050,299.991,0.910053
4.060,298.720,0.945837
4.070,297.655,0.947280
4.080,297.189,0.941050
4.090,297.126,0.940217
4.100,297.101,0.940186
4.110,297.063,0.939666
4.120,297.141,0.941084
4.130,297.215,0.944683
4.140,297.061,0.940283
4.150,297.031,0.941404
4.160,297.040,0.944412
4.170,297.053,0.944943
4.180,297.022,0.943812
4.190,297.090,0.946547
4.200,297.089,0.946594
4.210,297.040,0.946685
4.220,297.064,0.949418
4.230,297.057,0.950249
4.240,296.986,0.948217
4.250,296.962,0.947546
4.260,296.988,0.948541
4.270,296.947,0.947609
4.280,296.949,0.948215
4.290,297.006,0.950630
4.300,296.950,0.949192
4.310,296.885,0.946366
4.320,296.907,0.946671
4.330,296.904,0.946296
4.340,296.924,0.946569
4.350,296.856,0.945565
4.360,296.881,0.946408
4.370,296.780,0.941845
4.380,296.834,0.942478
4.390,296.911,0.945021
4.400,296.887,0.944235
4.410,296.792,0.941105
4.420,296.765,0.939800
4.430,296.676,0.935202
4.440,296.762,0.935957
4.450,296.872,0.937064
4.460,296.843,0.936691
4.470,296.684,0.932682
4.480,296.669,0.936047
4.490,296.787,0.932910
4.500,296.797,0.933729
4.510,296.855,0.935405
4.520,296.850,0.936145
4.530,296.747,0.933617
4.540,296.762,0.934654
4.550,296.825,0.936766
4.560,296.816,0.937189
4.570,296.849,0.938439
4.580,296.832,0.937712
4.590,296.716,0.935445
4.600,296.725,0.938254
4.610,296.848,0.944987
4.620,296.840,0.945348
4.630,296.872,0.944953
4.640,296.850,0.943722
4.650,296.822,0.945020
4.660,296.865,0.946759
4.670,296.902,0.944899
4.680,296.753,0.927082
4.690,296.388,0.917408
4.700,296.082,0.843549
4.710,294.793,0.610657
4.720,294.994,0.604468
4.730,295.312,0.736792
4.740,296.022,0.793596
4.750,296.458,0.773264
4.760,296.637,0.759504
4.770,296.632,0.742958
4.780,296.683,0.748130
4.790,296.682,0.753011
4.800,296.717,0.751165
4.810,296.728,0.750276
4.820,296.750,0.755192
4.830,296.665,0.763856
4.840,296.646,0.782151
4.850,296.675,0.797500
4.860,296.653,0.801856
4.870,296.646,0.809471
4.880,296.616,0.816363
4.890,296.506,0.830466
4.900,296.520,0.844181
4.910,296.527,0.851273
4.920,296.537,0.857874
4.930,296.537,0.863736
4.940,296.501,0.872863
4.950,296.505,0.886916
4.960,296.458,0.900372
4.970,296.539,0.903563
4.980,296.559,0.905240
4.990,296.608,0.904497
5.000,296.538,0.913391
5.010,296.479,0.921087
5.020,296.526,0.921954
5.030,296.501,0.924284
5.040,296.566,0.924357
5.050,296.582,0.922891
5.060,296.503,0.925936
5.070,296.395,0.934444
5.080,296.392,0.935899
5.090,296.434,0.935264
5.100,296.545,0.930720
5.110,296.719,0.927095
5.120,296.800,0.932106
5.130,296.907,0.938292
5.140,297.028,0.942707
5.150,297.077,0.943377
5.160,297.155,0.944853
5.170,297.317,0.947832
5.180,297.432,0.949664
5.190,297.475,0.949114
5.200,297.620,0.951995
5.210,297.771,0.953795
5.220,297.876,0.954654
5.230,297.905,0.954018
5.240,297.964,0.952321
5.250,298.138,0.951288
5.260,298.314,0.950300
5.270,298.353,0.948730
5.280,298.347,0.947431
5.290,298.441,0.946736
5.300,298.502,0.946938
5.310,298.572,0.946459
5.320,298.733,0.944433
5.330,298.897,0.941653
5.340,299.026,0.938968
5.350,299.096,0.937331
5.360,299.118,0.936017
5.370,299.166,0.934165
5.380,299.236,0.931773
5.390,299.326,0.928778
5.400,299.415,0.925935
5.410,299.505,0.923077
5.420,299.595,0.919927
5.430,299.694,0.916033
5.440,299.798,0.911554
5.450,299.905,0.906878
5.460,300.085,0.904201
5.470,300.200,0.910466
5.480,300.298,0.915941
5.490,300.378,0.920859
5.500,300.451,0.924388
5.510,300.575,0.928345
5.520,300.709,0.931819
5.530,300.779,0.933379
5.540,300.824,0.933418
5.550,300.999,0.937231
5.560,301.172,0.941382
5.570,301.283,0.944021
5.580,301.364,0.944317
5.590,301.529,0.945651
5.600,301.597,0.946105
5.610,301.730,0.948474
5.620,301.865,0.949481
5.630,301.952,0.948700
5.640,302.084,0.948634
5.650,302.205,0.949038
5.660,302.190,0.947844
5.670,302.378,0.946590
5.680,302.569,0.944915
5.690,302.714,0.941128
5.700,302.876,0.937536
5.710,302.970,0.934506
5.720,303.049,0.929125
5.730,303.114,0.928304
5.740,303.319,0.924593
5.750,303.256,0.924869
5.760,303.352,0.924177
5.770,303.451,0.916901
5.780,303.583,0.919325
5.790,303.678,0.920694
5.800,303.791,0.926064
5.810,303.985,0.934787
5.820,304.084,0.938910
5.830,304.265,0.943407
5.840,304.243,0.944148
5.850,304.495,0.948919
5.860,304.533,0.949240
5.870,304.735,0.952403
5.880,304.755,0.949396
5.890,304.875,0.951284
5.900,305.113,0.955837
5.910,305.158,0.951894
5.920,305.216,0.954602
5.930,305.415,0.955527
5.940,305.406,0.953845
5.950,305.577,0.952019
5.960,305.727,0.952899
5.970,305.845,0.952002
5.980,305.828,0.951421
5.990,306.052,0.947201
6.000,306.252,0.943656
6.010,306.413,0.941953
6.020,306.448,0.941536
6.030,306.445,0.946401
6.040,306.659,0.943146
6.050,306.917,0.929943
6.060,307.092,0.924669
6.070,307.193,0.928908
6.080,307.230,0.926504
6.090,307.274,0.928113
6.100,307.303,0.933854
6.110,307.170,0.930857
6.120,307.033,0.929139
6.130,306.867,0.933115
6.140,306.702,0.934858
6.150,306.500,0.938584
6.160,306.248,0.946383
6.170,305.857,0.950317
6.180,305.497,0.954709
6.190,305.488,0.956902
6.200,305.333,0.954982
6.210,304.895,0.948717
6.220,304.753,0.950313
6.230,304.651,0.950150
6.240,304.307,0.941639
6.250,304.157,0.941603
6.260,303.820,0.931384
6.270,303.658,0.926248
6.280,303.409,0.922134
6.290,303.187,0.928393
6.300,302.903,0.932528
6.310,302.587,0.936179
6.320,302.387,0.939648
6.330,302.255,0.940202
6.340,302.057,0.941205
6.350,302.078,0.940656
6.360,301.681,0.940000
6.370,301.317,0.935177
6.380,301.063,0.929722
6.390,300.861,0.924339
6.400,300.609,0.915309
6.410,300.388,0.907292
6.420,300.210,0.899716
6.430,300.093,0.893141
6.440,299.877,0.897199
6.450,299.705,0.904573
6.460,299.520,0.911132
6.470,299.358,0.916023
6.480,299.232,0.920771
6.490,298.965,0.925153
6.500,298.801,0.927117
6.510,298.684,0.927623
6.520,298.464,0.929599
6.530,298.192,0.929547
6.540,297.982,0.927742
6.550,297.863,0.927690
6.560,297.764,0.925905
6.570,297.617,0.922563
6.580,297.387,0.916989
6.590,297.155,0.911772
6.600,296.941,0.907061
6.610,296.764,0.899803
6.620,296.522,0.892543
6.630,296.354,0.904496
6.640,296.179,0.908087
6.650,295.981,0.915940
6.660,295.774,0.923191
6.670,295.560,0.928210
6.680,295.301,0.932781
6.690,295.188,0.933370
6.700,294.862,0.937583
6.710,294.785,0.937927
6.720,294.591,0.934390
6.730,294.403,0.934703
6.740,294.208,0.937172
6.750,294.049,0.934715
6.760,293.912,0.928324
6.770,293.738,0.922787
6.780,293.626,0.919870
6.790,293.435,0.911948
6.800,293.177,0.901417
6.810,293.073,0.900572
6.820,292.717,0.910213
6.830,292.598,0.918047
6.840,292.293,0.926511
6.850,292.090,0.933727
6.860,291.986,0.935395
6.870,291.766,0.933939
6.880,291.609,0.935677
6.890,291.335,0.936741
6.900,291.180,0.931566
6.910,290.990,0.931411
6.920,290.763,0.930612
6.930,290.448,0.924023
6.940,290.376,0.924626
6.950,290.098,0.917756
6.960,289.828,0.905943
6.970,289.671,0.897045
6.980,289.542,0.889975
6.990,289.407,0.901533
7.000,289.045,0.915926
7.010,288.748,0.930817
7.020,288.429,0.940285
7.030,288.463,0.941163
7.040,288.271,0.940515
7.050,287.845,0.943638
7.060,287.536,0.946909
7.070,287.276,0.948231
7.080,287.094,0.946450
7.090,286.966,0.943064
7.100,286.731,0.939805
7.110,286.588,0.936312
7.120,286.543,0.934854
7.130,286.523,0.931774
7.140,286.497,0.930161
7.150,286.533,0.933446
7.160,286.718,0.941493
7.170,286.821,0.944191
7.180,286.961,0.947660
7.190,286.989,0.949593
7.200,287.039,0.951274
7.210,287.034,0.951252
7.220,287.079,0.954107
7.230,287.202,0.955663
7.240,287.365,0.954551
7.250,287.424,0.957687
7.260,287.544,0.962701
7.270,287.720,0.964066
7.280,287.972,0.957950
7.290,288.018,0.954500
7.300,288.033,0.959016
7.310,288.061,0.959279
7.320,288.095,0.958938
7.330,288.164,0.959749
7.340,288.374,0.959570
7.350,288.509,0.957022
7.360,288.596,0.951409
7.370,288.612,0.951772
7.380,288.665,0.952256
7.390,288.719,0.951642
7.400,288.934,0.941931
7.410,288.990,0.939026
7.420,288.933,0.941412
7.430,288.944,0.945663
7.440,289.079,0.937957
7.450,289.457,0.924000
7.460,289.435,0.918632
7.470,289.419,0.919553
7.480,289.461,0.919727
7.490,289.730,0.929833
7.500,289.680,0.926281
7.510,289.607,0.924330
7.520,289.854,0.934469
7.530,289.936,0.937640
7.540,289.892,0.932069
7.550,290.103,0.939063
7.560,290.420,0.941885
7.570,290.293,0.940615
7.580,290.299,0.938145
7.590,290.520,0.936807
7.600,290.552,0.938249
7.610,290.519,0.937043
7.620,290.807,0.940542
7.630,290.936,0.938237
7.640,290.900,0.937095
7.650,291.211,0.935898
7.660,291.382,0.938447
7.670,291.392,0.939765
7.680,291.584,0.939092
7.690,291.636,0.935246
7.700,291.724,0.935392
7.710,291.919,0.934826
7.720,291.907,0.937585
7.730,292.127,0.933975
7.740,292.272,0.930619
7.750,292.260,0.926542
7.760,292.472,0.915861
7.770,292.536,0.909908
7.780,292.660,0.911978
7.790,292.724,0.913708
7.800,293.014,0.909147
7.810,293.316,0.931304
7.820,293.342,0.934493
7.830,293.351,0.910820
7.840,293.138,0.825990
7.850,292.778,0.614123
7.860,292.056,0.569329
7.870,291.546,0.693954
7.880,291.758,0.768709
7.890,292.423,0.801491
7.900,293.054,0.787763
7.910,293.435,0.760789
7.920,293.644,0.795074
7.930,293.853,0.799630
7.940,293.892,0.794788
7.950,294.002,0.792090
7.960,294.118,0.808249
7.970,294.159,0.826711
7.980,294.198,0.839581
7.990,294.300,0.850876
8.000,294.284,0.867988
8.010,294.402,0.878722
8.020,294.498,0.881604
8.030,294.533,0.896159
8.040,294.677,0.908002
8.050,294.738,0.916596
8.060,294.810,0.924058
8.070,294.843,0.928666
8.080,294.926,0.934479
8.090,295.141,0.936833
8.100,295.245,0.938102
8.110,295.299,0.938754
8.120,295.492,0.942110
8.130,295.372,0.947212
8.140,294.449,0.943506
8.150,292.889,0.910939
8.160,290.782,0.934636
8.170,288.443,0.933935
8.180,286.006,0.940169
8.190,283.761,0.958233
8.200,280.954,0.934100
8.210,278.575,0.930114
8.220,276.602,0.919248
8.230,274.758,0.950940
8.240,272.861,0.934615
8.250,270.429,0.935550
8.260,268.019,0.959330
8.270,265.571,0.956909
8.280,263.166,0.953993
8.290,261.360,0.950768
8.300,259.372,0.961663
8.310,257.195,0.964158
8.320,254.929,0.940868
8.330,252.518,0.936118
8.340,250.144,0.949825
8.350,248.160,0.939337
8.360,246.106,0.929788
8.370,244.181,0.935469
8.380,242.019,0.963488
8.390,239.564,0.950387
8.400,237.396,0.931457
8.410,235.137,0.904141
8.420,233.323,0.911320
8.430,230.920,0.888499
8.440,228.101,0.914251
8.450,225.400,0.928571
8.460,223.462,0.947149
8.470,221.380,0.921719
8.480,219.286,0.896101
8.490,217.195,0.898876
8.500,215.341,0.916248
8.510,212.960,0.911150
8.520,209.920,0.925690
8.530,207.692,0.936334
8.540,205.654,0.937370
8.550,203.707,0.926144
8.560,201.638,0.893984
8.570,199.346,0.889733
8.580,196.957,0.922962
8.590,194.902,0.929893
8.600,192.779,0.884985
8.610,190.224,0.891719
8.620,187.541,0.914089
8.630,185.543,0.928092
8.640,183.538,0.900631
8.650,181.084,0.865738
8.660,178.489,0.868516
8.670,176.546,0.883068
